# Pulseq sequence file
# Created by MATLAB mr toolbox

[VERSION]
major 1
minor 4
revision 1

[DEFINITIONS]
AdcRasterTime 1e-07 
BlockDurationRaster 1e-05 
FOV 0.2 0.2 0.004 
GradientRasterTime 1e-05 
Name 7T_0p5_400_r4_seg188_max51 
RadiofrequencyRasterTime 1e-06 
Slice_Thickness 0.002 
TE 0.005 
TR 0.5 
accelerationFactor 4 
adc_DwellTime 1e-06 
adc_effectiveTime 0.994104728 
adc_length 86000 
adc_nSegments 86 
adc_segmentDuration 0.001 
adc_segmentLength 1000 
doFastestPrescan 0 
flipAngle 1e-100 
isSpiral 1 
matrixSize 400 400 1 
nRepetitions 188 
nSlices 1 
readoutGradientDuration 0.08652 
resolution 0.0005 
skope_acqDuration 0.03614 
skope_gradFreeDelay 0.0002 
skope_interleaveTR 0.49 
skope_maxSegmentDuration 0.03494 
skope_minimalTR 0.11 
skope_nDynamics 188 
skope_nInterleaves 1 
skope_nPrescans 0 
skope_nSegments2measure 188 
skope_stitchMode concurrent 
skope_trig2AdcTime 0.0002 
skope_trigChannel ext1 
skope_triggerDelays 0 0.03494 0.03526 0.03558 0.0359 0.03621 0.03652 0.03683 0.03714 0.03745 0.03776 0.03807 0.03838 0.03869 0.039 0.0393 0.0396 0.0399 0.0402 0.0405 0.0408 0.0411 0.0414 0.0417 0.042 0.0423 0.0426 0.04289 0.04318 0.04347 0.04376 0.04405 0.04434 0.04463 0.04492 0.04521 0.0455 0.04579 0.04608 0.04637 0.04666 0.04694 0.04722 0.0475 0.04778 0.04806 0.04834 0.04862 0.0489 0.04918 0.04946 0.04974 0.05002 0.0503 0.05058 0.05086 0.05114 0.05142 0.05169 0.05196 0.05223 0.0525 0.05277 0.05304 0.05331 0.05358 0.05385 0.05412 0.05439 0.05466 0.05493 0.0552 0.05547 0.05574 0.05601 0.05628 0.05655 0.05682 0.05709 0.05736 0.05763 0.0579 0.05817 0.05844 0.05871 0.05898 0.05925 0.05952 0.05979 0.06006 0.06033 0.0606 0.06087 0.06114 0.06141 0.06168 0.06195 0.06222 0.06249 0.06276 0.06303 0.0633 0.06357 0.06384 0.06411 0.06438 0.06465 0.06492 0.06519 0.06546 0.06573 0.066 0.06627 0.06654 0.06681 0.06708 0.06735 0.06762 0.06789 0.06816 0.06843 0.0687 0.06897 0.06924 0.06951 0.06978 0.07005 0.07032 0.07059 0.07086 0.07113 0.0714 0.07167 0.07194 0.07221 0.07248 0.07275 0.07302 0.07329 0.07356 0.07383 0.0741 0.07437 0.07464 0.07491 0.07518 0.07545 0.07572 0.07599 0.07626 0.07653 0.0768 0.07707 0.07734 0.07761 0.07788 0.07815 0.07842 0.07869 0.07896 0.07923 0.07949 0.07975 0.08001 0.08027 0.08053 0.08079 0.08105 0.08131 0.08157 0.08183 0.08209 0.08235 0.08261 0.08287 0.08313 0.08339 0.08365 0.08391 0.08417 0.08443 0.08469 0.08495 0.08521 0.08547 0.08573 0.08599 0.08628 
useSingleAdcSegment4Prescan 0 

# Format of blocks:
# NUM DUR RF  GX  GY  GZ  ADC  EXT
[BLOCKS]
   1   0   0   0   0   0  0  1
   2 887   1   0   0   1  0  0
   3 228   2   0   0   2  0  0
   4  78   0   0   0   3  0  0
   5 288   0   0   0   0  0  0
   6  20   0   0   0   0  0  2
   7 8652   0   4   5   0  1  0
   8 350   0   7   8   6  0  0
   9 38685   0   0   0   0  0  0
  10   0   0   0   0   0  0  3
  11   0   0   0   0   0  0  4
  12   0   0   0   0   0  0  1
  13 887   1   0   0   1  0  0
  14 228   2   0   0   2  0  0
  15  78   0   0   0   3  0  0
  16 288   0   0   0   0  0  0
  17  20   0   0   0   0  0  0
  18 8652   0   4   5   0  1  5
  19 350   0   7   8   6  0  0
  20 38685   0   0   0   0  0  0
  21   0   0   0   0   0  0  3
  22   0   0   0   0   0  0  4
  23   0   0   0   0   0  0  1
  24 887   1   0   0   1  0  0
  25 228   2   0   0   2  0  0
  26  78   0   0   0   3  0  0
  27 288   0   0   0   0  0  0
  28  20   0   0   0   0  0  0
  29 8652   0   4   5   0  1  6
  30 350   0   7   8   6  0  0
  31 38685   0   0   0   0  0  0
  32   0   0   0   0   0  0  3
  33   0   0   0   0   0  0  4
  34   0   0   0   0   0  0  1
  35 887   1   0   0   1  0  0
  36 228   2   0   0   2  0  0
  37  78   0   0   0   3  0  0
  38 288   0   0   0   0  0  0
  39  20   0   0   0   0  0  0
  40 8652   0   4   5   0  1  7
  41 350   0   7   8   6  0  0
  42 38685   0   0   0   0  0  0
  43   0   0   0   0   0  0  3
  44   0   0   0   0   0  0  4
  45   0   0   0   0   0  0  1
  46 887   1   0   0   1  0  0
  47 228   2   0   0   2  0  0
  48  78   0   0   0   3  0  0
  49 288   0   0   0   0  0  0
  50  20   0   0   0   0  0  0
  51 8652   0   4   5   0  1  8
  52 350   0   7   8   6  0  0
  53 38685   0   0   0   0  0  0
  54   0   0   0   0   0  0  3
  55   0   0   0   0   0  0  4
  56   0   0   0   0   0  0  1
  57 887   1   0   0   1  0  0
  58 228   2   0   0   2  0  0
  59  78   0   0   0   3  0  0
  60 288   0   0   0   0  0  0
  61  20   0   0   0   0  0  0
  62 8652   0   4   5   0  1  9
  63 350   0   7   8   6  0  0
  64 38685   0   0   0   0  0  0
  65   0   0   0   0   0  0  3
  66   0   0   0   0   0  0  4
  67   0   0   0   0   0  0  1
  68 887   1   0   0   1  0  0
  69 228   2   0   0   2  0  0
  70  78   0   0   0   3  0  0
  71 288   0   0   0   0  0  0
  72  20   0   0   0   0  0  0
  73 8652   0   4   5   0  1 10
  74 350   0   7   8   6  0  0
  75 38685   0   0   0   0  0  0
  76   0   0   0   0   0  0  3
  77   0   0   0   0   0  0  4
  78   0   0   0   0   0  0  1
  79 887   1   0   0   1  0  0
  80 228   2   0   0   2  0  0
  81  78   0   0   0   3  0  0
  82 288   0   0   0   0  0  0
  83  20   0   0   0   0  0  0
  84 8652   0   4   5   0  1 11
  85 350   0   7   8   6  0  0
  86 38685   0   0   0   0  0  0
  87   0   0   0   0   0  0  3
  88   0   0   0   0   0  0  4
  89   0   0   0   0   0  0  1
  90 887   1   0   0   1  0  0
  91 228   2   0   0   2  0  0
  92  78   0   0   0   3  0  0
  93 288   0   0   0   0  0  0
  94  20   0   0   0   0  0  0
  95 8652   0   4   5   0  1 12
  96 350   0   7   8   6  0  0
  97 38685   0   0   0   0  0  0
  98   0   0   0   0   0  0  3
  99   0   0   0   0   0  0  4
 100   0   0   0   0   0  0  1
 101 887   1   0   0   1  0  0
 102 228   2   0   0   2  0  0
 103  78   0   0   0   3  0  0
 104 288   0   0   0   0  0  0
 105  20   0   0   0   0  0  0
 106 8652   0   4   5   0  1 13
 107 350   0   7   8   6  0  0
 108 38685   0   0   0   0  0  0
 109   0   0   0   0   0  0  3
 110   0   0   0   0   0  0  4
 111   0   0   0   0   0  0  1
 112 887   1   0   0   1  0  0
 113 228   2   0   0   2  0  0
 114  78   0   0   0   3  0  0
 115 288   0   0   0   0  0  0
 116  20   0   0   0   0  0  0
 117 8652   0   4   5   0  1 14
 118 350   0   7   8   6  0  0
 119 38685   0   0   0   0  0  0
 120   0   0   0   0   0  0  3
 121   0   0   0   0   0  0  4
 122   0   0   0   0   0  0  1
 123 887   1   0   0   1  0  0
 124 228   2   0   0   2  0  0
 125  78   0   0   0   3  0  0
 126 288   0   0   0   0  0  0
 127  20   0   0   0   0  0  0
 128 8652   0   4   5   0  1 15
 129 350   0   7   8   6  0  0
 130 38685   0   0   0   0  0  0
 131   0   0   0   0   0  0  3
 132   0   0   0   0   0  0  4
 133   0   0   0   0   0  0  1
 134 887   1   0   0   1  0  0
 135 228   2   0   0   2  0  0
 136  78   0   0   0   3  0  0
 137 288   0   0   0   0  0  0
 138  20   0   0   0   0  0  0
 139 8652   0   4   5   0  1 16
 140 350   0   7   8   6  0  0
 141 38685   0   0   0   0  0  0
 142   0   0   0   0   0  0  3
 143   0   0   0   0   0  0  4
 144   0   0   0   0   0  0  1
 145 887   1   0   0   1  0  0
 146 228   2   0   0   2  0  0
 147  78   0   0   0   3  0  0
 148 288   0   0   0   0  0  0
 149  20   0   0   0   0  0  0
 150 8652   0   4   5   0  1 17
 151 350   0   7   8   6  0  0
 152 38685   0   0   0   0  0  0
 153   0   0   0   0   0  0  3
 154   0   0   0   0   0  0  4
 155   0   0   0   0   0  0  1
 156 887   1   0   0   1  0  0
 157 228   2   0   0   2  0  0
 158  78   0   0   0   3  0  0
 159 288   0   0   0   0  0  0
 160  20   0   0   0   0  0  0
 161 8652   0   4   5   0  1 18
 162 350   0   7   8   6  0  0
 163 38685   0   0   0   0  0  0
 164   0   0   0   0   0  0  3
 165   0   0   0   0   0  0  4
 166   0   0   0   0   0  0  1
 167 887   1   0   0   1  0  0
 168 228   2   0   0   2  0  0
 169  78   0   0   0   3  0  0
 170 288   0   0   0   0  0  0
 171  20   0   0   0   0  0  0
 172 8652   0   4   5   0  1 19
 173 350   0   7   8   6  0  0
 174 38685   0   0   0   0  0  0
 175   0   0   0   0   0  0  3
 176   0   0   0   0   0  0  4
 177   0   0   0   0   0  0  1
 178 887   1   0   0   1  0  0
 179 228   2   0   0   2  0  0
 180  78   0   0   0   3  0  0
 181 288   0   0   0   0  0  0
 182  20   0   0   0   0  0  0
 183 8652   0   4   5   0  1 20
 184 350   0   7   8   6  0  0
 185 38685   0   0   0   0  0  0
 186   0   0   0   0   0  0  3
 187   0   0   0   0   0  0  4
 188   0   0   0   0   0  0  1
 189 887   1   0   0   1  0  0
 190 228   2   0   0   2  0  0
 191  78   0   0   0   3  0  0
 192 288   0   0   0   0  0  0
 193  20   0   0   0   0  0  0
 194 8652   0   4   5   0  1 21
 195 350   0   7   8   6  0  0
 196 38685   0   0   0   0  0  0
 197   0   0   0   0   0  0  3
 198   0   0   0   0   0  0  4
 199   0   0   0   0   0  0  1
 200 887   1   0   0   1  0  0
 201 228   2   0   0   2  0  0
 202  78   0   0   0   3  0  0
 203 288   0   0   0   0  0  0
 204  20   0   0   0   0  0  0
 205 8652   0   4   5   0  1 22
 206 350   0   7   8   6  0  0
 207 38685   0   0   0   0  0  0
 208   0   0   0   0   0  0  3
 209   0   0   0   0   0  0  4
 210   0   0   0   0   0  0  1
 211 887   1   0   0   1  0  0
 212 228   2   0   0   2  0  0
 213  78   0   0   0   3  0  0
 214 288   0   0   0   0  0  0
 215  20   0   0   0   0  0  0
 216 8652   0   4   5   0  1 23
 217 350   0   7   8   6  0  0
 218 38685   0   0   0   0  0  0
 219   0   0   0   0   0  0  3
 220   0   0   0   0   0  0  4
 221   0   0   0   0   0  0  1
 222 887   1   0   0   1  0  0
 223 228   2   0   0   2  0  0
 224  78   0   0   0   3  0  0
 225 288   0   0   0   0  0  0
 226  20   0   0   0   0  0  0
 227 8652   0   4   5   0  1 24
 228 350   0   7   8   6  0  0
 229 38685   0   0   0   0  0  0
 230   0   0   0   0   0  0  3
 231   0   0   0   0   0  0  4
 232   0   0   0   0   0  0  1
 233 887   1   0   0   1  0  0
 234 228   2   0   0   2  0  0
 235  78   0   0   0   3  0  0
 236 288   0   0   0   0  0  0
 237  20   0   0   0   0  0  0
 238 8652   0   4   5   0  1 25
 239 350   0   7   8   6  0  0
[RF]
1  2.8559e-100 1 2 3 100 -1028.21 25.8417
2 5.58277e-100 4 5 0 140 0 -0

# Format of arbitrary gradients:
#   time_shape_id of 0 means default timing (stepping with grad_raster starting at 1/2 of grad_raster)
# id amplitude amp_shape_id time_shape_id delay
# ..      Hz/m       ..         ..          us
[GRADIENTS]
4 -2.17132e+06 6 0 0
5  2.17133e+06 7 0 0
7      334.316 8 9 0
8      19394.7 10 9 0

# Format of trapezoid gradients:
# id amplitude rise flat fall delay
# ..      Hz/m   us   us   us    us
[TRAP]
 1      2.5e+06 350   50 350 8120
 2        1e+06 140 2000 140   0
 3 -2.54762e+06 360   60 360   0
 6  2.54777e+06 360 2780 360   0

# Format of ADC events:
# id num dwell delay freq phase
# ..  ..    ns    us   Hz   rad
[ADC]
1 86000 1000 0 0 0

# Format of extension lists:
# id type ref next_id
# next_id of 0 terminates the list
# Extension list is followed by extension specifications
[EXTENSIONS]
1 1 1 0
2 2 1 0
3 3 1 0
4 3 2 0
5 2 2 0
6 2 3 0
7 2 4 0
8 2 5 0
9 2 6 0
10 2 7 0
11 2 8 0
12 2 9 0
13 2 10 0
14 2 11 0
15 2 12 0
16 2 13 0
17 2 14 0
18 2 15 0
19 2 16 0
20 2 17 0
21 2 18 0
22 2 19 0
23 2 20 0
24 2 21 0
25 2 22 0
26 2 23 0
27 2 24 0
28 2 25 0
29 2 26 0
30 2 27 0
31 2 28 0
32 2 29 0
33 2 30 0
34 2 31 0
35 2 32 0
36 2 33 0
37 2 34 0
38 2 35 0
39 2 36 0
40 2 37 0
41 2 38 0
42 2 39 0
43 2 40 0
44 2 41 0
45 2 42 0
46 2 43 0
47 2 44 0
48 2 45 0
49 2 46 0
50 2 47 0
51 2 48 0
52 2 49 0
53 2 50 0
54 2 51 0
55 2 52 0
56 2 53 0
57 2 54 0
58 2 55 0
59 2 56 0
60 2 57 0
61 2 58 0
62 2 59 0
63 2 60 0
64 2 61 0
65 2 62 0
66 2 63 0
67 2 64 0
68 2 65 0
69 2 66 0
70 2 67 0
71 2 68 0
72 2 69 0
73 2 70 0
74 2 71 0
75 2 72 0
76 2 73 0
77 2 74 0
78 2 75 0
79 2 76 0
80 2 77 0
81 2 78 0
82 2 79 0
83 2 80 0
84 2 81 0
85 2 82 0
86 2 83 0
87 2 84 0
88 2 85 0
89 2 86 0
90 2 87 0
91 2 88 0
92 2 89 0
93 2 90 0
94 2 91 0
95 2 92 0
96 2 93 0
97 2 94 0
98 2 95 0
99 2 96 0
100 2 97 0
101 2 98 0
102 2 99 0
103 2 100 0
104 2 101 0
105 2 102 0
106 2 103 0
107 2 104 0
108 2 105 0
109 2 106 0
110 2 107 0
111 2 108 0
112 2 109 0
113 2 110 0
114 2 111 0
115 2 112 0
116 2 113 0
117 2 114 0
118 2 115 0
119 2 116 0
120 2 117 0
121 2 118 0
122 2 119 0
123 2 120 0
124 2 121 0
125 2 122 0
126 2 123 0
127 2 124 0
128 2 125 0
129 2 126 0
130 2 127 0
131 2 128 0
132 2 129 0
133 2 130 0
134 2 131 0
135 2 132 0
136 2 133 0
137 2 134 0
138 2 135 0
139 2 136 0
140 2 137 0
141 2 138 0
142 2 139 0
143 2 140 0
144 2 141 0
145 2 142 0
146 2 143 0
147 2 144 0
148 2 145 0
149 2 146 0
150 2 147 0
151 2 148 0
152 2 149 0
153 2 150 0
154 2 151 0
155 2 152 0
156 2 153 0
157 2 154 0
158 2 155 0
159 2 156 0
160 2 157 0
161 2 158 0
162 2 159 0
163 2 160 0
164 2 161 0
165 2 162 0
166 2 163 0
167 2 164 0
168 2 165 0
169 2 166 0
170 2 167 0
171 2 168 0
172 2 169 0
173 2 170 0
174 2 171 0
175 2 172 0
176 2 173 0
177 2 174 0
178 2 175 0
179 2 176 0
180 2 177 0
181 2 178 0
182 2 179 0
183 2 180 0
184 2 181 0
185 2 182 0
186 2 183 0
187 2 184 0
188 2 185 0
189 2 186 0
190 2 187 0
191 2 188 0

# Extension specification for digital output and input triggers:
# id type channel delay (us) duration (us)
extension TRIGGERS 2
1 1 3 0 10
2 1 3 34740 10
3 1 3 35060 10
4 1 3 35380 10
5 1 3 35700 10
6 1 3 36010 10
7 1 3 36320 10
8 1 3 36630 10
9 1 3 36940 10
10 1 3 37250 10
11 1 3 37560 10
12 1 3 37870 10
13 1 3 38180 10
14 1 3 38490 10
15 1 3 38800 10
16 1 3 39100 10
17 1 3 39400 10
18 1 3 39700 10
19 1 3 40000 10
20 1 3 40300 10
21 1 3 40600 10
22 1 3 40900 10
23 1 3 41200 10
24 1 3 41500 10
25 1 3 41800 10
26 1 3 42100 10
27 1 3 42400 10
28 1 3 42690 10
29 1 3 42980 10
30 1 3 43270 10
31 1 3 43560 10
32 1 3 43850 10
33 1 3 44140 10
34 1 3 44430 10
35 1 3 44720 10
36 1 3 45010 10
37 1 3 45300 10
38 1 3 45590 10
39 1 3 45880 10
40 1 3 46170 10
41 1 3 46460 10
42 1 3 46740 10
43 1 3 47020 10
44 1 3 47300 10
45 1 3 47580 10
46 1 3 47860 10
47 1 3 48140 10
48 1 3 48420 10
49 1 3 48700 10
50 1 3 48980 10
51 1 3 49260 10
52 1 3 49540 10
53 1 3 49820 10
54 1 3 50100 10
55 1 3 50380 10
56 1 3 50660 10
57 1 3 50940 10
58 1 3 51220 10
59 1 3 51490 10
60 1 3 51760 10
61 1 3 52030 10
62 1 3 52300 10
63 1 3 52570 10
64 1 3 52840 10
65 1 3 53110 10
66 1 3 53380 10
67 1 3 53650 10
68 1 3 53920 10
69 1 3 54190 10
70 1 3 54460 10
71 1 3 54730 10
72 1 3 55000 10
73 1 3 55270 10
74 1 3 55540 10
75 1 3 55810 10
76 1 3 56080 10
77 1 3 56350 10
78 1 3 56620 10
79 1 3 56890 10
80 1 3 57160 10
81 1 3 57430 10
82 1 3 57700 10
83 1 3 57970 10
84 1 3 58240 10
85 1 3 58510 10
86 1 3 58780 10
87 1 3 59050 10
88 1 3 59320 10
89 1 3 59590 10
90 1 3 59860 10
91 1 3 60130 10
92 1 3 60400 10
93 1 3 60670 10
94 1 3 60940 10
95 1 3 61210 10
96 1 3 61480 10
97 1 3 61750 10
98 1 3 62020 10
99 1 3 62290 10
100 1 3 62560 10
101 1 3 62830 10
102 1 3 63100 10
103 1 3 63370 10
104 1 3 63640 10
105 1 3 63910 10
106 1 3 64180 10
107 1 3 64450 10
108 1 3 64720 10
109 1 3 64990 10
110 1 3 65260 10
111 1 3 65530 10
112 1 3 65800 10
113 1 3 66070 10
114 1 3 66340 10
115 1 3 66610 10
116 1 3 66880 10
117 1 3 67150 10
118 1 3 67420 10
119 1 3 67690 10
120 1 3 67960 10
121 1 3 68230 10
122 1 3 68500 10
123 1 3 68770 10
124 1 3 69040 10
125 1 3 69310 10
126 1 3 69580 10
127 1 3 69850 10
128 1 3 70120 10
129 1 3 70390 10
130 1 3 70660 10
131 1 3 70930 10
132 1 3 71200 10
133 1 3 71470 10
134 1 3 71740 10
135 1 3 72010 10
136 1 3 72280 10
137 1 3 72550 10
138 1 3 72820 10
139 1 3 73090 10
140 1 3 73360 10
141 1 3 73630 10
142 1 3 73900 10
143 1 3 74170 10
144 1 3 74440 10
145 1 3 74710 10
146 1 3 74980 10
147 1 3 75250 10
148 1 3 75520 10
149 1 3 75790 10
150 1 3 76060 10
151 1 3 76330 10
152 1 3 76600 10
153 1 3 76870 10
154 1 3 77140 10
155 1 3 77410 10
156 1 3 77680 10
157 1 3 77950 10
158 1 3 78220 10
159 1 3 78490 10
160 1 3 78760 10
161 1 3 79030 10
162 1 3 79290 10
163 1 3 79550 10
164 1 3 79810 10
165 1 3 80070 10
166 1 3 80330 10
167 1 3 80590 10
168 1 3 80850 10
169 1 3 81110 10
170 1 3 81370 10
171 1 3 81630 10
172 1 3 81890 10
173 1 3 82150 10
174 1 3 82410 10
175 1 3 82670 10
176 1 3 82930 10
177 1 3 83190 10
178 1 3 83450 10
179 1 3 83710 10
180 1 3 83970 10
181 1 3 84230 10
182 1 3 84490 10
183 1 3 84750 10
184 1 3 85010 10
185 1 3 85270 10
186 1 3 85530 10
187 1 3 85790 10
188 1 3 86080 10

# Extension specification for setting labels:
# id set labelstring
extension LABELSET 1
1 0 SLC

# Extension specification for increasing labels:
# id set labelstring
extension LABELINC 3
1 1 SLC
2 1 REP

# Sequence Shapes
[SHAPES]

shape_id 1
num_samples 800
0
0
173
1e-07
0
0
4
1e-07
0
0
1
1e-07
0
1e-07
0
1e-07
0
1e-07
1e-07
2
2e-07
1e-07
2e-07
2e-07
1
3e-07
3e-07
1
4e-07
4e-07
0
5e-07
5e-07
0
6e-07
7e-07
8e-07
9e-07
1e-06
1.1e-06
1.3e-06
1.4e-06
1.6e-06
1.8e-06
2e-06
2.3e-06
2.5e-06
2.9e-06
3.1e-06
3.6e-06
4e-06
4.4e-06
5e-06
5.5e-06
6.2e-06
6.9e-06
7.7e-06
8.5e-06
9.5e-06
1.05e-05
1.17e-05
1.3e-05
1.43e-05
1.6e-05
1.76e-05
1.95e-05
2.16e-05
2.38e-05
2.64e-05
2.9e-05
3.2e-05
3.53e-05
3.88e-05
4.27e-05
4.7e-05
5.16e-05
5.66e-05
6.22e-05
6.81e-05
7.46e-05
8.17e-05
8.94e-05
9.76e-05
0.0001067
0.0001165
0.0001271
0.0001385
0.0001508
0.0001643
0.0001786
0.0001941
0.0002108
0.0002289
0.0002482
0.000269
0.0002913
0.0003153
0.0003409
0.0003685
0.0003979
0.0004293
0.000463
0.0004989
0.0005372
0.0005779
0.0006214
0.0006676
0.0007168
0.0007689
0.0008243
0.000883
0.0009452
0.001011
0.0010806
0.0011541
0.0012318
0.0013137
0.0013999
0.0014907
0.0015862
0.0016866
0.001792
0.0019025
0.0020183
0.0021395
0.0022662
0.0023988
0.002537
0.0026811
0.0028314
0.0029877
0.0031502
0.0033189
0.0034941
0.0036755
0.0038634
0.0040576
0.0042583
0.0044654
0.0046789
0.0048986
0.0051245
0.0053567
0.0055947
0.0058387
0.0060883
0.0063434
0.0066038
0.0068692
0.0071393
0.007414
0.0076926
0.0079752
0.008261
0.0085498
0.0088411
0.0091345
0.0094294
0.0097253
0.0100218
0.010318
0.0106135
0.0109077
0.0111998
0.0114892
0.0117753
0.0120572
0.0123341
0.0126056
0.0128705
0.0131282
0.0133781
0.013619
0.0138503
0.0140713
0.0142809
0.0144785
0.0146632
0.0148342
0.0149908
0.015132
0.0152573
0.0153658
0.0154568
0.0155297
0.0155835
0.015618
0.0156324
0.0156261
0.0155986
0.0155495
0.0154783
0.0153846
0.0152681
0.0151285
0.0149656
0.0147793
0.0145693
0.0143357
0.0140786
0.013798
0.0134938
0.0131667
0.0128165
0.0124439
0.0120491
0.0116327
0.0111951
0.010737
0.0102591
0.009762
0.0092466
0.0087137
0.0081641
0.007599
0.0070192
0.0064257
0.0058197
0.0052024
0.0045748
0.0039382
0.0032939
0.002643
0.0019869
0.0013268
0.000664
0
-0.000664
-0.0013268
-0.0019869
-0.002643
-0.0032939
-0.0039382
-0.0045748
-0.0052024
-0.0058197
-0.0064257
-0.0070192
-0.007599
-0.0081641
-0.0087137
-0.0092466
-0.009762
-0.0102591
-0.010737
-0.0111951
-0.0116327
-0.0120491
-0.0124439
-0.0128165
-0.0131667
-0.0134938
-0.013798
-0.0140786
-0.0143357
-0.0145693
-0.0147793
-0.0149656
-0.0151285
-0.0152681
-0.0153846
-0.0154783
-0.0155495
-0.0155986
-0.0156261
-0.0156324
-0.015618
-0.0155835
-0.0155297
-0.0154568
-0.0153658
-0.0152573
-0.015132
-0.0149908
-0.0148342
-0.0146632
-0.0144785
-0.0142809
-0.0140713
-0.0138503
-0.013619
-0.0133781
-0.0131282
-0.0128705
-0.0126056
-0.0123341
-0.0120572
-0.0117753
-0.0114892
-0.0111998
-0.0109077
-0.0106135
-0.010318
-0.0100218
-0.0097253
-0.0094294
-0.0091345
-0.0088411
-0.0085498
-0.008261
-0.0079752
-0.0076926
-0.007414
-0.0071393
-0.0068692
-0.0066038
-0.0063434
-0.0060883
-0.0058387
-0.0055947
-0.0053567
-0.0051245
-0.0048986
-0.0046789
-0.0044654
-0.0042583
-0.0040576
-0.0038634
-0.0036755
-0.0034941
-0.0033189
-0.0031502
-0.0029877
-0.0028314
-0.0026811
-0.002537
-0.0023988
-0.0022662
-0.0021395
-0.0020183
-0.0019025
-0.001792
-0.0016866
-0.0015862
-0.0014907
-0.0013999
-0.0013137
-0.0012318
-0.0011541
-0.0010806
-0.001011
-0.0009452
-0.000883
-0.0008243
-0.0007689
-0.0007168
-0.0006676
-0.0006214
-0.0005779
-0.0005372
-0.0004989
-0.000463
-0.0004293
-0.0003979
-0.0003685
-0.0003409
-0.0003153
-0.0002913
-0.000269
-0.0002482
-0.0002289
-0.0002108
-0.0001941
-0.0001786
-0.0001643
-0.0001508
-0.0001385
-0.0001271
-0.0001165
-0.0001067
-9.76e-05
-8.94e-05
-8.17e-05
-7.46e-05
-6.81e-05
-6.22e-05
-5.66e-05
-5.16e-05
-4.7e-05
-4.27e-05
-3.88e-05
-3.53e-05
-3.2e-05
-2.9e-05
-2.64e-05
-2.38e-05
-2.16e-05
-1.95e-05
-1.76e-05
-1.6e-05
-1.43e-05
-1.3e-05
-1.17e-05
-1.05e-05
-9.5e-06
-8.5e-06
-7.7e-06
-6.9e-06
-6.2e-06
-5.5e-06
-5e-06
-4.4e-06
-4e-06
-3.6e-06
-3.1e-06
-2.9e-06
-2.5e-06
-2.3e-06
-2e-06
-1.8e-06
-1.6e-06
-1.4e-06
-1.3e-06
-1.1e-06
-1e-06
-9e-07
-8e-07
-7e-07
-6e-07
-5e-07
-5e-07
0
-4e-07
-4e-07
0
-3e-07
-3e-07
1
-2e-07
-2e-07
1
-1e-07
-2e-07
-1e-07
-1e-07
2
0
-1e-07
0
-1e-07
0
-1e-07
0
0
1
-1e-07
0
0
4
-1e-07
0
0
172

shape_id 2
num_samples 800
0
0
798

shape_id 3
num_samples 800
5
10
10
797

shape_id 4
num_samples 2000
8.00403207e-05
0.000240364508
0.000401019348
0.000562011973
0.000723349541
0.000885039232
0.00104708825
0.00120950381
0.00137229317
0.00153546357
0.00169902229
0.00186297663
0.00202733387
0.00219210134
0.00235728635
0.00252289623
0.00268893833
0.00285541997
0.00302234851
0.0031897313
0.00335757566
0.00352588896
0.00369467853
0.00386395171
0.00403371583
0.00420397822
0.00437474618
0.00454602702
0.00471782802
0.00489015647
0.00506301962
0.00523642471
0.00541037896
0.00558488958
0.00575996374
0.0059356086
0.00611183128
0.00628863889
0.00646603849
0.00664403713
0.00682264182
0.00700185952
0.00718169717
0.00736216167
0.00754325988
0.00772499862
0.00790738467
0.00809042475
0.00827412556
0.00845849372
0.00864353582
0.0088292584
0.00901566795
0.00920277089
0.00939057359
0.00957908236
0.00976830346
0.00995824308
0.0101489073
0.0103403023
0.010532434
0.0107253083
0.0109189311
0.0111133082
0.0113084453
0.011504348
0.0117010218
0.0118984724
0.012096705
0.0122957249
0.0124955375
0.0126961479
0.012897561
0.013099782
0.0133028156
0.0135066667
0.01371134
0.01391684
0.0141231712
0.0143303381
0.014538345
0.014747196
0.0149568952
0.0151674467
0.0153788543
0.0155911217
0.0158042527
0.0160182508
0.0162331194
0.0164488618
0.0166654812
0.0168829808
0.0171013634
0.0173206319
0.017540789
0.0177618373
0.0179837793
0.0182066172
0.0184303533
0.0186549897
0.0188805282
0.0191069707
0.0193343189
0.0195625742
0.019791738
0.0200218116
0.020252796
0.0204846923
0.0207175012
0.0209512233
0.0211858593
0.0214214094
0.0216578738
0.0218952527
0.0221335458
0.022372753
0.0226128737
0.0228539075
0.0230958536
0.0233387111
0.0235824789
0.0238271557
0.0240727403
0.0243192309
0.0245666259
0.0248149234
0.0250641213
0.0253142173
0.025565209
0.0258170938
0.0260698689
0.0263235313
0.0265780779
0.0268335054
0.0270898102
0.0273469887
0.027605037
0.027863951
0.0281237265
0.028384359
0.0286458439
0.0289081764
0.0291713514
0.0294353637
0.029700208
0.0299658786
0.0302323697
0.0304996753
0.0307677893
0.0310367052
0.0313064165
0.0315769162
0.0318481975
0.0321202531
0.0323930756
0.0326666574
0.0329409906
0.0332160671
0.0334918789
0.0337684173
0.0340456737
0.0343236393
0.0346023049
0.0348816612
0.0351616987
0.0354424076
0.035723778
0.0360057997
0.0362884624
0.0365717553
0.0368556677
0.0371401885
0.0374253065
0.03771101
0.0379972875
0.0382841269
0.0385715162
0.0388594428
0.0391478942
0.0394368576
0.0397263198
0.0400162676
0.0403066874
0.0405975656
0.040888888
0.0411806406
0.0414728087
0.0417653779
0.0420583332
0.0423516594
0.0426453412
0.042939363
0.0432337089
0.043528363
0.0438233088
0.04411853
0.0444140097
0.0447097309
0.0450056764
0.0453018288
0.0455981703
0.0458946831
0.0461913489
0.0464881493
0.0467850658
0.0470820795
0.0473791712
0.0476763217
0.0479735113
0.0482707202
0.0485679285
0.0488651157
0.0491622615
0.049459345
0.0497563453
0.0500532411
0.050350011
0.0506466334
0.0509430862
0.0512393473
0.0515353944
0.0518312048
0.0521267557
0.0524220239
0.0527169862
0.0530116189
0.0533058983
0.0535998004
0.0538933009
0.0541863753
0.0544789989
0.0547711468
0.0550627938
0.0553539144
0.0556444831
0.055934474
0.0562238609
0.0565126176
0.0568007175
0.0570881339
0.0573748397
0.0576608078
0.0579460106
0.0582304205
0.0585140096
0.0587967498
0.0590786127
0.0593595699
0.0596395924
0.0599186514
0.0601967176
0.0604737615
0.0607497536
0.0610246639
0.0612984624
0.0615711188
0.0618426026
0.062112883
0.0623819292
0.0626497099
0.0629161939
0.0631813496
0.0634451452
0.0637075488
0.0639685282
0.0642280511
0.0644860847
0.0647425965
0.0649975534
0.0652509222
0.0655026696
0.065752762
0.0660011657
0.0662478466
0.0664927707
0.0667359036
0.0669772109
0.0672166577
0.0674542093
0.0676898304
0.0679234859
0.0681551404
0.0683847582
0.0686123034
0.0688377402
0.0690610324
0.0692821436
0.0695010374
0.069717677
0.0699320257
0.0701440465
0.0703537021
0.0705609553
0.0707657685
0.0709681042
0.0711679244
0.0713651913
0.0715598667
0.0717519123
0.0719412897
0.0721279604
0.0723118855
0.0724930264
0.0726713438
0.0728467988
0.0730193519
0.0731889639
0.073355595
0.0735192057
0.073679756
0.0738372062
0.0739915159
0.0741426452
0.0742905535
0.0744352006
0.0745765458
0.0747145484
0.0748491676
0.0749803626
0.0751080923
0.0752323155
0.0753529912
0.0754700778
0.0755835341
0.0756933184
0.0757993891
0.0759017046
0.076000223
0.0760949024
0.0761857008
0.0762725762
0.0763554864
0.0764343891
0.0765092422
0.0765800031
0.0766466295
0.0767090788
0.0767673085
0.0768212758
0.0768709382
0.0769162527
0.0769571767
0.0769936671
0.0770256812
0.0770531758
0.0770761081
0.0770944348
0.077108113
0.0771170994
0.077121351
0.0771208244
0.0771154765
0.0771052639
0.0770901435
0.0770700718
0.0770450056
0.0770149014
0.0769797161
0.0769394061
0.0768939281
0.0768432387
0.0767872945
0.0767260523
0.0766594685
0.0765874999
0.076510103
0.0764272345
0.0763388511
0.0762449095
0.0761453664
0.0760401785
0.0759293026
0.0758126955
0.075690314
0.0755621149
0.0754280553
0.0752880919
0.0751421819
0.0749902822
0.07483235
0.0746683424
0.0744982165
0.0743219297
0.0741394393
0.0739507026
0.0737556772
0.0735543206
0.0733465903
0.0731324441
0.0729118397
0.072684735
0.072451088
0.0722108567
0.0719639991
0.0717104736
0.0714502385
0.0711832521
0.0709094731
0.0706288601
0.0703413718
0.0700469671
0.069745605
0.0694372447
0.0691218453
0.0687993663
0.0684697671
0.0681330074
0.067789047
0.0674378458
0.0670793639
0.0667135613
0.0663403986
0.0659598363
0.0655718349
0.0651763554
0.0647733587
0.064362806
0.0639446587
0.0635188781
0.0630854261
0.0626442644
0.0621953552
0.0617386605
0.0612741429
0.060801765
0.0603214895
0.0598332794
0.059337098
0.0588329087
0.058320675
0.0578003608
0.0572719301
0.0567353472
0.0561905765
0.0556375827
0.0550763308
0.0545067859
0.0539289134
0.0533426788
0.0527480481
0.0521449874
0.0515334629
0.0509134414
0.0502848895
0.0496477744
0.0490020635
0.0483477244
0.0476847248
0.0470130331
0.0463326175
0.0456434468
0.0449454899
0.044238716
0.0435230947
0.0427985957
0.0420651892
0.0413228455
0.0405715352
0.0398112293
0.0390418992
0.0382635163
0.0374760525
0.0366794799
0.0358737712
0.035058899
0.0342348365
0.0334015571
0.0325590346
0.031707243
0.0308461567
0.0299757505
0.0290959995
0.028206879
0.0273083648
0.026400433
0.02548306
0.0245562226
0.0236198978
0.0226740633
0.0217186967
0.0207537764
0.0197792808
0.0187951889
0.0178014798
0.0167981334
0.0157851296
0.0147624487
0.0137300716
0.0126879794
0.0116361537
0.0105745762
0.00950322938
0.00842209586
0.00733115872
0.00623040142
0.00511980783
0.00399936221
0.00286904922
0.00172885393
0.000578761804
0.000581241276
0.00175116902
0.00293103474
0.00412085131
0.00532063119
0.00653038645
0.00775012871
0.00897986916
0.0102196186
0.0114693874
0.0127291854
0.0139990221
0.0152789067
0.0165688476
0.0178688532
0.019178931
0.0204990885
0.0218293325
0.0231696693
0.024520105
0.025880645
0.0272512944
0.0286320578
0.0300229394
0.0314239427
0.0328350711
0.0342563274
0.0356877137
0.037129232
0.0385808836
0.0400426695
0.04151459
0.0429966451
0.0444888344
0.0459911567
0.0475036107
0.0490261944
0.0505589054
0.0521017407
0.0536546971
0.0552177706
0.0567909568
0.058374251
0.0599676478
0.0615711413
0.0631847253
0.064808393
0.0664421371
0.0680859497
0.0697398226
0.071403747
0.0730777137
0.0747617128
0.076455734
0.0781597667
0.0798737994
0.0815978204
0.0833318175
0.0850757777
0.0868296879
0.0885935342
0.0903673023
0.0921509773
0.0939445439
0.0957479862
0.097561288
0.0993844323
0.101217402
0.103060178
0.104912744
0.106775079
0.108647165
0.110528981
0.112420508
0.114321723
0.116232606
0.118153134
0.120083286
0.122023037
0.123972364
0.125931244
0.127899651
0.129877561
0.131864948
0.133861785
0.135868045
0.137883703
0.139908729
0.141943096
0.143986775
0.146039737
0.148101951
0.150173388
0.152254016
0.154343804
0.15644272
0.158550733
0.160667808
0.162793912
0.164929012
0.167073073
0.169226059
0.171387936
0.173558667
0.175738216
0.177926545
0.180123617
0.182329394
0.184543837
0.186766907
0.188998565
0.19123877
0.193487481
0.195744657
0.198010257
0.200284238
0.202566557
0.204857172
0.207156039
0.209463112
0.211778348
0.214101701
0.216433126
0.218772576
0.221120004
0.223475363
0.225838605
0.228209682
0.230588545
0.232975145
0.235369432
0.237771356
0.240180865
0.24259791
0.245022437
0.247454396
0.249893732
0.252340393
0.254794325
0.257255474
0.259723785
0.262199204
0.264681674
0.267171139
0.269667543
0.272170829
0.274680939
0.277197815
0.279721399
0.282251633
0.284788455
0.287331808
0.289881629
0.29243786
0.295000437
0.297569301
0.300144388
0.302725636
0.305312982
0.307906363
0.310505714
0.313110972
0.315722071
0.318338946
0.320961532
0.323589763
0.326223571
0.328862891
0.331507654
0.334157793
0.33681324
0.339473926
0.342139782
0.344810738
0.347486725
0.350167672
0.352853509
0.355544164
0.358239567
0.360939645
0.363644326
0.366353537
0.369067205
0.371785257
0.374507619
0.377234217
0.379964975
0.382699821
0.385438677
0.388181468
0.390928118
0.393678551
0.39643269
0.399190458
0.401951777
0.404716569
0.407484757
0.410256262
0.413031004
0.415808906
0.418589886
0.421373866
0.424160765
0.426950502
0.429742997
0.432538169
0.435335936
0.438136217
0.440938928
0.443743989
0.446551316
0.449360826
0.452172436
0.454986062
0.457801621
0.460619029
0.4634382
0.466259051
0.469081496
0.471905451
0.474730829
0.477557545
0.480385513
0.483214647
0.48604486
0.488876066
0.491708177
0.494541107
0.497374768
